VG,ID_#1,ID_#2,VD_6V_ID,VD_7V_ID
0.0,2.0000000000001753e-12,2.0000000329444373e-12,2.0000077357248086e-12,2.0008380288288408e-12
0.25,2.0000000000004778e-12,2.0000000640445118e-12,2.0000128876031263e-12,2.001229319160611e-12
0.5,2.0000000000012827e-12,2.0000001233577525e-12,2.0000213219716427e-12,2.0017941326694575e-12
0.75,2.000000000003396e-12,2.0000002354158406e-12,2.0000350321373905e-12,2.0026051256190737e-12
1.0,2.0000000000088647e-12,2.0000004451328226e-12,2.000057159704576e-12,2.0037634573360786e-12
1.25,2.0000000000228145e-12,2.0000008339274304e-12,2.000092618422928e-12,2.0054091563674953e-12
1.5,2.0000000000578885e-12,2.0000015479310178e-12,2.000149035199755e-12,2.007734928207414e-12
1.75,2.0000000001448167e-12,2.00000284681765e-12,2.000238157571091e-12,2.0110044223394684e-12
2.0,2.0000000003571824e-12,2.000005187431801e-12,2.0003779409904708e-12,2.0155762326197697e-12
2.25,2.000000000868573e-12,2.000009365475968e-12,2.0005956177990984e-12,2.0219352107221245e-12
2.5,2.0000000020824183e-12,2.0000167529777193e-12,2.00093217060578e-12,2.0307330320651167e-12
2.75,2.0000000049223725e-12,2.0000296919603123e-12,2.001448795895553e-12,2.0428403706e-12
3.0,2.0000000114716533e-12,2.0000521399289765e-12,2.002236161035968e-12,2.0594135142229385e-12
3.25,2.0000000263586146e-12,2.000090716586992e-12,2.0034275437805674e-12,2.081978784499448e-12
3.5,2.000000059712353e-12,2.0001563823276875e-12,2.00521731444091e-12,2.1125387067946767e-12
3.75,2.000000133367749e-12,2.00026709966736e-12,2.0078866956040653e-12,2.1537044982806705e-12
4.0,2.000000293685491e-12,2.0004520055054447e-12,2.0118393323561815e-12,2.2088600832837283e-12
4.25,2.000000637615983e-12,2.000757877136173e-12,2.017649947247868e-12,2.282363481385519e-12
4.5,2.00000136483745e-12,2.001259037279448e-12,2.026130256758929e-12,2.379792007231256e-12
4.75,2.000002880366156e-12,2.0020723498647858e-12,2.038417403472922e-12,2.5082382247881755e-12
5.0,2.0000059932100744e-12,2.003379654213254e-12,2.0560914163501315e-12,2.676663953590016e-12
5.25,2.000012294654681e-12,2.005460924375922e-12,2.081329643790392e-12,2.8963197587058944e-12
5.5,2.0000248667027227e-12,2.0087426835727227e-12,2.1171076861216186e-12,3.181237186131392e-12
5.75,2.000049586688083e-12,2.0138678156947534e-12,2.1674580370134342e-12,3.54880043653598e-12
6.0,2.000097489318723e-12,2.021794959466654e-12,2.2377993471859744e-12,4.020403099928995e-12
6.25,2.0001889704952354e-12,2.033938197567898e-12,2.3353508304900004e-12,4.622193894361763e-12
6.5,2.0003611403377316e-12,2.052360789324227e-12,2.4696476790635166e-12,5.385912956628933e-12
6.75,2.000680460674523e-12,2.0800402247474104e-12,2.653174228241329e-12,6.349817023353295e-12
7.0,2.0012640815589225e-12,2.121225816368728e-12,2.9021317487960504e-12,7.559687734826194e-12
7.25,2.0023152196130008e-12,2.181914215910587e-12,3.2373568297090698e-12,9.069912236567752e-12
7.5,2.0041807511979717e-12,2.270472343305086e-12,3.685403992759486e-12,1.0944619228446168e-11
7.75,2.007443230799121e-12,2.3984407893789958e-12,4.279802067537695e-12,1.32588466530277e-11
8.0,2.013065128379464e-12,2.5815531646805865e-12,5.062487565456039e-12,1.609970942170734e-11
8.25,2.0226105387258864e-12,2.8410072861145083e-12,6.085409467161319e-12,1.9567527122162263e-11
8.5,2.038579195907367e-12,3.205021502822263e-12,7.412288195261925e-12,2.377686279144775e-11
8.75,2.0648993677400885e-12,3.7107026904316394e-12,9.120496923417781e-12,2.8857414924322162e-11
9.0,2.1076397779058544e-12,4.406240230001169e-12,1.1303015795837965e-11,3.4954696357794547e-11
9.25,2.1760151917198408e-12,5.353421403942799e-12,1.4070389363619331e-11,4.2230426061113376e-11
9.5,2.2837739633752964e-12,6.630437044033486e-12,1.755259515353923e-11,5.0862553774202046e-11
9.75,2.4510658743980254e-12,8.33491131089287e-12,2.1900707689431793e-11,6.104483354481175e-11
10.0,2.706890963878877e-12,1.0587046165626817e-11,2.7288218787693785e-11,7.298586121504368e-11
10.25,3.092219488933988e-12,1.353272031208458e-11,3.391185323705728e-11,8.690749349687414e-11
10.5,3.663843390468347e-12,1.7346326196793036e-11,4.1991701098370524e-11,1.0304257310144085e-10
10.75,4.4989640185523205e-12,2.2233070462947028e-11,5.177047616069353e-11,1.2163189599761967e-10
11.0,5.70043340603299e-12,2.8430407932021485e-11,6.351170707277039e-11,1.429203736689997e-10
11.25,7.402443277835952e-12,3.6208233009194156e-11,7.749667584287203e-11,1.671523654041893e-10
11.5,9.776297576769614e-12,4.5867422822178655e-11,9.401994006314263e-11,1.9456618312251822e-10
11.75,1.3035717129212829e-11,5.773632154781842e-11,1.1338331220551876e-10,2.2538780362852258e-10
12.0,1.744092385735215e-11,7.216478337797362e-11,1.3588822276555408e-10,2.5982385978684447e-10
12.25,2.3300560699048316e-11,8.951545959005038e-11,1.6182646401356163e-10,2.9805402183887895e-10
12.5,3.097035537793211e-11,1.1015212832301053e-10,1.9146939653125776e-10,3.402229215126171e-10
12.75,4.0847371844934966e-11,1.3442502579477993e-10,2.250557990349014e-10,3.8643181294725137e-10
13.0,5.335875595786799e-11,1.6265334238649552e-10,2.627786491767813e-10,4.367302037265686e-10
13.25,6.8944111382777e-11,1.9510528863636215e-10,3.047712335618422e-10,4.911077242536774e-10
13.5,8.803106508586499e-11,2.319764014780815e-10,3.510930922882146e-10,5.494865319727725e-10
13.75,1.1100420478479298e-10,2.7336703127743535e-10,4.017163990936468e-10,6.117145662498455e-10
14.0,1.3816836886884786e-10,3.1926020194870657e-10,4.565134543016896e-10,6.775599779325195e-10
14.25,1.6970818243870697e-10,3.6950124315799423e-10,5.152460159031433e-10,7.46707052907993e-10
14.5,2.0564666493230363e-10,4.237807280123263e-10,5.775572067100624e-10,8.18753930022949e-10
14.75,2.45806558936433e-10,4.816222863719257e-10,6.4296670648026e-10,8.932123797788422e-10
15.0,2.8977860335503104e-10,5.423767828246862e-10,7.108698633073407e-10,9.695098612453468e-10
15.25,3.369011578464337e-10,6.052241374547894e-10,7.805412372824922e-10,1.0469940114160796e-09
15.5,3.8625526810142765e-10,6.691837256838965e-10,8.511429235976867e-10,1.1249396453714347e-09
15.75,4.3667838470876116e-10,7.331338321252535e-10,9.217377975089759e-10,1.2025582595452543e-09
16.0,4.867985269436382e-10,7.958400771833304e-10,9.913075890008026e-10,1.27900993730694e-09
16.25,5.35088816193891e-10,8.559921209244278e-10,1.0587754427846102e-09,1.3534174598020674e-09
16.5,5.799401737654182e-10,9.122473232362058e-10,1.1230323640835311e-09,1.424882329849239e-09
16.75,6.197478318092166e-10,9.632794551781927e-10,1.182966708689928e-09,1.492502327236285e-09
17.0,6.530054258199934e-10,1.0078300674609345e-09,1.2374956636184336e-09,1.5553901345793047e-09
17.25,6.78399097591542e-10,1.0447597774923417e-09,1.2855974980248404e-09,1.6126925083425178e-09
17.5,6.948934623651136e-10,1.0730965757854966e-09,1.3263432564694716e-09,1.6636094234959448e-09
17.75,7.018016154186441e-10,1.0920783004287423e-09,1.3589265282668817e-09,1.7074125956867806e-09
18.0,6.988325846020704e-10,1.101186691349449e-09,1.3826899634414826e-09,1.74346278382587e-09
18.25,6.861116609963847e-10,1.1001709011146404e-09,1.3971473185585167e-09,1.7712252996186404e-09
18.5,6.641716282347358e-10,1.0890589736743951e-09,1.402e-09,1.790283198545068e-09
18.75,6.339157460228402e-10,1.0681565579239786e-09,1.3971473185585167e-09,1.8003476976019242e-09
19.0,5.965560715978188e-10,1.038032938448178e-09,1.3826899634414826e-09,1.8012654560395775e-09
19.25,5.535329870522326e-10,9.994952745396455e-10,1.3589265282668817e-09,1.7930224625468282e-09
19.5,5.064233703314087e-10,9.535526744513531e-10,1.3263432564694716e-09,1.7757443911612394e-09
19.75,4.5684553876017177e-10,9.013723360098343e-10,1.2855974980248404e-09,1.7496934132694199e-09
20.0,4.0636886782947414e-10,8.44230411329131e-10,1.2374956636184336e-09,1.7152615787244965e-09
20.25,3.564349316536705e-10,7.8346047378538e-10,1.182966708689928e-09,1.672960999627311e-09
20.5,3.0829531639018856e-10,7.204024704668267e-10,1.1230323640835311e-09,1.6234111802600198e-09
20.75,2.6296918377080916e-10,6.563548433933454e-10,1.0587754427846102e-09,1.5673239311765925e-09
21.0,2.2122149307513273e-10,5.925321258634939e-10,9.913075890008026e-10,1.505486380540289e-09
21.25,1.8356079188234346e-10,5.300298081239567e-10,9.217377975089759e-10,1.4387426485010891e-09
21.5,1.5025386969486845e-10,4.697976698180175e-10,8.511429235976867e-10,1.3679747789642265e-09
21.75,1.2135346747261162e-10,4.126221493334058e-10,7.805412372824922e-10,1.2940835270073478e-09
22.0,9.673469826562896e-11,3.5911771409418496e-10,7.108698633073407e-10,1.2179695801936366e-09
22.25,7.613582836522603e-11,3.0972665602477257e-10,6.4296670648026e-10,1.140515749993464e-09
22.5,5.919950174814885e-11,2.647262974214626e-10,5.775572067100624e-10,1.0625706083648296e-09
22.75,4.5511231951793174e-11,2.2424227630537372e-10,5.152460159031433e-10,9.849339679514768e-10
23.0,3.463289073000546e-11,1.8826639585511086e-10,4.565134543016896e-10,9.083445165952222e-10
23.25,2.6129856907568224e-11,1.5667746624886395e-10,4.017163990936468e-10,8.334698224822244e-10
23.5,1.9591342289692105e-11,1.292636253395826e-10,3.510930922882146e-10,7.608988298428481e-10
23.75,1.4644109393846902e-11,1.0574477557940267e-10,3.047712335618422e-10,6.91136871078434e-10
24.0,1.0960299843045058e-11,8.579399253355871e-11,2.627786491767813e-10,6.246031334388298e-10
24.25,8.260396991974415e-12,6.9057017800767e-11,2.250557990349014e-10,5.616304402533718e-10
24.5,6.312471501749512e-12,5.5169220132279884e-11,1.9146939653125776e-10,5.024671408157492e-10
24.75,4.928839917815721e-12,4.376967043028514e-11,1.6182646401356163e-10,4.4728085111470367e-10
25.0,3.961146624393944e-12,3.451221141609377e-11,1.3588822276555408e-10,3.9616375062543505e-10
25.25,3.2947011308512926e-12,2.7073598971973612e-11,1.1338331220551876e-10,3.4913911846023276e-10
25.5,2.8427019963797442e-12,2.115894293853722e-11,9.401994006314263e-11,3.0616878471497523e-10
25.75,2.5407836479511702e-12,1.6504778990544812e-11,7.749667584287203e-11,2.671611786065789e-10
26.0,2.3421512352277554e-12,1.2880162733416578e-11,6.351170707277039e-11,2.3197967224551824e-10
26.25,2.213431101732762e-12,1.0086197970620419e-11,5.177047616069353e-11,2.0045094554807321e-10
26.5,2.131263002202387e-12,7.954400628071912e-12,4.1991701098370524e-11,1.7237313158588952e-10
26.75,2.0795924718996005e-12,6.344266279171542e-12,3.391185323705728e-11,1.475235402596969e-10
27.0,2.0475824374461632e-12,5.140360644105672e-12,2.7288218787693785e-11,1.2566579930527905e-10
27.25,2.028045708175066e-12,4.249196081447754e-12,2.1900707689431793e-11,1.0655629320852633e-10
27.5,2.0162978819965963e-12,3.5960989569493222e-12,1.755259515353923e-11,8.994982080175904e-11
27.75,2.0093377224306412e-12,3.122217437678181e-12,1.4070389363619331e-11,7.560442963562233e-11
28.0,2.005274675952548e-12,2.781769846070942e-12,1.1303015795837965e-11,6.328541852227875e-11
28.25,2.00293762016645e-12,2.5395920231442272e-12,9.120496923417781e-12,5.2768528138238714e-11
28.5,2.0016130228907287e-12,2.3690088906927645e-12,7.412288195261925e-12,4.3842362816131374e-11
28.75,2.0008732336304e-12,2.2500304154065136e-12,6.085409467161319e-12,3.631010451519783e-11
29.0,2.00046608530289e-12,2.1678547201512803e-12,5.062487565456039e-12,2.9990592581698904e-11
29.25,2.0002452705453596e-12,2.111650064316055e-12,4.279802067537695e-12,2.4718850652803894e-11
29.5,2.00012725369976e-12,2.073581578498431e-12,3.685403992759486e-12,2.034614544431087e-11
29.75,2.000065093926883e-12,2.048046740045335e-12,3.2373568297090698e-12,1.673966182587332e-11
30.0,2.000032828841607e-12,2.0310844691974387e-12,2.9021317487960504e-12,1.378187521688642e-11
