VG,VD_1V_ID,VD_2V_ID,VD_3V_ID
0.0,2.0000000000090998e-12,2.000000802990331e-12,2.000459076005498e-12
0.25,2.000000000022325e-12,2.0000014289766623e-12,2.000687517231302e-12
0.5,2.000000000054069e-12,2.000002522770751e-12,2.001024081534342e-12
0.75,2.0000000001292695e-12,2.0000044184329534e-12,2.0015171811481085e-12
1.0,2.0000000003050967e-12,2.0000076770891237e-12,2.002235590702105e-12
1.25,2.0000000007108385e-12,2.000013233134495e-12,2.003276416514469e-12
1.5,2.0000000016349184e-12,2.000022629069774e-12,2.004775929116479e-12
1.75,2.0000000037120436e-12,2.000038389151004e-12,2.006924183889741e-12
2.0,2.000000008319973e-12,2.0000646082748205e-12,2.009984613736838e-12
2.25,2.00000001840868e-12,2.000107871225481e-12,2.014320094975639e-12
2.5,2.0000000402082535e-12,2.0001786738154654e-12,2.020427371293409e-12
2.75,2.0000000866961137e-12,2.0002935986413722e-12,2.0289821781616505e-12
3.0,2.0000001845337942e-12,2.0004786135640584e-12,2.0408979477223824e-12
3.25,2.0000003877430754e-12,2.0007740228726285e-12,2.0574015954586332e-12
3.5,2.0000008042740354e-12,2.0012418250533312e-12,2.080130594785902e-12
3.75,2.000001646857055e-12,2.0019765366478436e-12,2.111256328438416e-12
4.0,2.0000033288913398e-12,2.0031209524797617e-12,2.15363955323703e-12
4.25,2.0000066425555108e-12,2.004888856298131e-12,2.211024705135581e-12
4.5,2.000013084665479e-12,2.0075974039586745e-12,2.2882806702739694e-12
4.75,2.000025443796534e-12,2.011712807252184e-12,2.391696507080773e-12
5.0,2.000048841957621e-12,2.0179140839585653e-12,2.5293413601688424e-12
5.25,2.0000925541867978e-12,2.0271810384598753e-12,2.7114983770121404e-12
5.5,2.000173137417246e-12,2.040914317951103e-12,2.951182722611688e-12
5.75,2.0003197257821727e-12,2.0610973561485432e-12,3.2647536663220356e-12
6.0,2.0005828492483432e-12,2.0905122477662515e-12,3.6726300523180435e-12
6.25,2.0010488821181557e-12,2.1330240340235037e-12,4.20011711058145e-12
6.5,2.0018633265860393e-12,2.193950412926878e-12,4.878350360176853e-12
6.75,2.003267707223251e-12,2.280536344850222e-12,5.745359142032261e-12
7.0,2.0056570387569523e-12,2.4025551534830143e-12,6.847247945891656e-12
7.25,2.0096677860009595e-12,2.5730591858190675e-12,8.239488040866592e-12
7.5,2.0163101051733305e-12,2.8093034597578265e-12,9.988304896243908e-12
7.75,2.027163038732098e-12,3.1338644694817944e-12,1.2172138462025382e-11
8.0,2.0446572322177045e-12,3.5759728342615493e-12,1.4883143617531166e-11
8.25,2.072476483065822e-12,4.17307211333631e-12,1.8228687138568472e-11
8.5,2.1161165911391845e-12,4.9726062125662754e-12,2.2332785641385757e-11
8.75,2.1836467735889147e-12,6.034023785518708e-12,2.733741652699619e-11
9.0,2.2867240922149284e-12,7.430969440120067e-12,3.340362150405559e-11
9.25,2.4419131534675256e-12,9.253608213284466e-12,4.071231048551755e-11
9.5,2.6723594742854527e-12,1.1611001850963498e-11,4.9464663341015605e-11
9.75,3.0098525998032647e-12,1.463342359893468e-11,5.988201906547297e-11
10.0,3.4972913142440658e-12,1.847446373537002e-11,7.220513739955767e-11
10.25,4.191525261493675e-12,2.3312742901201698e-11,8.669271785058367e-11
10.5,5.166492876565585e-12,2.9353017060334816e-11,1.0361906643147775e-10
10.75,6.516504092419161e-12,3.682642997896791e-11,1.2327081218374818e-10
11.0,8.359429530931113e-12,4.598965034405365e-11,1.4594259442515545e-10
11.25,1.0839460691301981e-11,5.7122625286901846e-11,1.7193166814859038e-10
11.5,1.412900672714114e-11,7.052469441522677e-11,2.0153140923147166e-10
11.75,1.8429205558253333e-11,8.650884238609448e-11,2.350237428028078e-10
12.0,2.396846681170371e-11,1.053939266130126e-10,2.7267056647322515e-10
12.25,3.0998450454134616e-11,1.2749480154680174e-10,3.1470429384153295e-10
12.5,3.978693735653044e-11,1.5311037185493918e-10,3.6131770088071883e-10
12.75,5.060718315668192e-11,1.8250974115588311e-10,4.1265331608155085e-10
13.0,6.372357505967774e-11,2.1591677550205753e-10,4.687926517350058e-10
13.25,7.93737328876463e-11,2.534935635587509e-10,5.297456252502948e-10
13.5,9.774759750733156e-11,2.953234178263007e-10,5.954405625083496e-10
13.75,1.1896450294316232e-10,3.413942106183589e-10,6.657152064914366e-10
14.0,1.4304968873199212e-10,3.9158296083001976e-10,7.40309170547272e-10
14.25,1.6991211928589856e-10,4.456426685382799e-10,8.18858273799961e-10
14.5,1.9932577286671355e-10,5.031924209411281e-10,9.008911742239374e-10
14.75,2.3091668088580715e-10,5.637117542760708e-10,9.85828671438249e-10
15.0,2.6415788621423474e-10,6.265401452248426e-10,1.0729859861058344e-09
15.25,2.9837411586921194e-10,6.908823200395707e-10,1.1615782368833229e-09
15.5,3.3275732782468735e-10,7.558198143120004e-10,1.250729231379347e-09
15.75,3.6639342850399603e-10,8.203289014284179e-10,1.3394835680252512e-09
16.0,3.982994379268709e-10,8.833046500002302e-10,1.4268219157951034e-09
16.25,4.274693060275435e-10,9.43590492033915e-10,1.5116792039780146e-09
16.5,4.5292557932264135e-10,1.0000123103808061e-09,1.592965321081426e-09
16.75,4.737733097628471e-10,1.0514157141684313e-09,1.6695877972041683e-09
17.0,4.89252101880941e-10,1.0967048921942544e-09,1.7404758346522898e-09
17.25,4.987820937790986e-10,1.1348812415262566e-09,1.804604963570811e-09
17.5,5.02e-10,1.1650798813716129e-09,1.8610215385126954e-09
17.75,4.987820937790986e-10,1.18660219283511e-09,1.9088662625509226e-09
18.0,4.89252101880941e-10,1.1989426768151366e-09,1.947395930630326e-09
18.25,4.737733097628471e-10,1.201808688721011e-09,1.9760026244624863e-09
18.5,4.5292557932264135e-10,1.1951319742866665e-09,1.9942296666030104e-09
18.75,4.274693060275435e-10,1.179071371535122e-09,2.001783748716219e-09
19.0,3.982994379268709e-10,1.1540065295425733e-09,1.998542783921254e-09
19.25,3.6639342850399603e-10,1.120522990831433e-09,1.984559189440162e-09
19.5,3.3275732782468735e-10,1.0793894558445972e-09,1.960058476201181e-09
19.75,2.9837411586921194e-10,1.0315284619946369e-09,1.925433198431458e-09
20.0,2.6415788621423474e-10,9.779820381558146e-10,1.8812324900950615e-09
20.25,2.3091668088580715e-10,9.198741173458153e-10,1.8281475779373293e-09
20.5,1.9932577286671355e-10,8.583715937524634e-10,1.766993805169191e-09
20.75,1.6991211928589856e-10,7.946458928033636e-10,1.6986898188356081e-09
21.0,1.4304968873199212e-10,7.2983679165516e-10,1.6242346624890683e-09
21.25,1.1896450294316232e-10,6.650199976523937e-10,1.544683570489909e-09
21.5,9.774759750733156e-11,6.011796859367703e-10,1.4611232795235766e-09
21.75,7.93737328876463e-11,5.391868407918297e-10,1.3746476571218345e-09
22.0,6.372357505967774e-11,4.797838666565749e-10,1.2863343982895805e-09
22.25,5.060718315668192e-11,4.235755615793328e-10,1.1972234635872e-09
22.5,3.978693735653044e-11,3.7102620290521066e-10,1.1082978303482028e-09
22.75,3.0998450454134616e-11,3.224622022716118e-10,1.0204670092398169e-09
23.0,2.396846681170371e-11,2.7807955879257076e-10,9.345536477808243e-10
23.25,1.8429205558253333e-11,2.3795518355379457e-10,8.512834075452598e-10
23.5,1.412900672714114e-11,2.02061086846188e-10,7.71278169181729e-10
23.75,1.0839460691301981e-11,1.7028040790996013e-10,6.950524950399021e-10
24.0,8.359429530931113e-12,1.4242431670657206e-10,6.230131681951092e-10
24.25,6.516504092419161e-12,1.1824891644620816e-10,5.554615329654963e-10
24.5,5.166492876565585e-12,9.747141046187315e-11,4.925982883529128e-10
24.75,4.191525261493675e-12,7.978495322839087e-11,4.345303336597748e-10
25.0,3.4972913142440658e-12,6.487176928379067e-11,3.812792350547403e-10
25.25,3.0098525998032647e-12,5.241428360857241e-11,3.3279087217203597e-10
25.5,2.6723594742854527e-12,4.210415307883937e-11,2.8894583307088544e-10
25.75,2.4419131534675256e-12,3.364921403827454e-11,2.4957015144610134e-10
26.0,2.2867240922149284e-12,2.6778461674593332e-11,2.1444601874752277e-10
26.25,2.1836467735889147e-12,2.1245251130420643e-11,1.8332215243342573e-10
26.5,2.1161165911391845e-12,1.6828958698682225e-11,1.559235564923929e-10
26.75,2.072476483065822e-12,1.3335366320505227e-11,1.319604683003275e-10
27.0,2.0446572322177045e-12,1.0596037365103044e-11,1.1113634381821123e-10
27.25,2.027163038732098e-12,8.466940431585176e-12,9.315478849157765e-11
27.5,2.0163101051733305e-12,6.826554978581446e-12,7.772539190008727e-11
27.75,2.0096677860009595e-12,5.5736620930278924e-12,6.456846868503891e-11
28.0,2.0056570387569523e-12,4.624989341819457e-12,5.3418745558846596e-11
28.25,2.003267707223251e-12,3.912843476958273e-12,4.402806379110591e-11
28.5,2.0018633265860393e-12,3.382831153673015e-12,3.616718844454457e-11
28.75,2.0010488821181557e-12,2.991737435473872e-12,2.962683015612529e-11
29.0,2.0005828492483432e-12,2.7056057152854655e-12,2.4217993076484612e-11
29.25,2.0003197257821727e-12,2.498041237621045e-12,1.9771764557696097e-11
29.5,2.000173137417246e-12,2.3487436819848638e-12,1.6138659304472004e-11
29.75,2.0000925541867978e-12,2.242261958721098e-12,1.3187624017298444e-11
30.0,2.000048841957621e-12,2.1669559614822803e-12,1.0804799083301904e-11
